# 1D PNP Solver Results
# Debye length: 0.0697951 nm
# Left electrode potential: 257 mV
# Right electrode potential: 0 mV
# Bulk potential: 0 mV
# Bulk concentration: 2420 mol/m^3
# Thermal voltage: 25.6926 mV
# Grid: non-uniform with stretching factor 5
#
# Surface charge density [uC/cm^2]:
#   Left electrode:  14.1042
#   Right electrode: -6.61308e-29
# Capacitance [uF/cm^2]:
#   Left EDL:  54.8801
#   Right EDL: 0
#   Total (series): 0
#
# Columns:
# 1: x [nm]
# 2: x/lambda_D [-]
# 3: phi [mV]
# 4: phi_normalized = e*phi/(kB*T) [-]
# 5: c+ [mol/m^3]
# 6: c- [mol/m^3]
# 7: c+/c0 [-]
# 8: c-/c0 [-]
# 9: rho [C/m^3]
# 10: phi_GC [mV] (Gouy-Chapman analytical)
# 11: dx [nm] (grid spacing)
0.00000000e+00	0.00000000e+00	2.57000000e+02	1.00028883e+01	9.92102519e-06	4.84122165e+03	4.09959719e-09	2.00050481e+00	-4.67106878e+08	2.57000000e+02	8.27796265e-02
8.27796265e-02	1.18603792e+00	1.43211768e+02	5.57405184e+00	6.97249125e-02	4.84114277e+03	2.88119473e-05	2.00047222e+00	-4.67092541e+08	3.19615595e+01	8.22296050e-02
1.64459210e-01	2.35631481e+00	6.63676672e+01	2.58314539e+00	2.74647738e+01	4.81357343e+03	1.13490801e-02	1.98907993e+00	-4.61789283e+08	9.63739091e+00	8.11350620e-02
2.45049751e-01	3.51098826e+00	2.46507586e+01	9.59450527e-01	6.19495233e+02	4.22091015e+03	2.55989766e-01	1.74417775e+00	-3.47483714e+08	3.02932923e+00	8.00514825e-02
3.24562175e-01	4.65021484e+00	8.47179198e+00	3.29736923e-01	1.64977348e+03	3.19029005e+03	6.81724577e-01	1.31830167e+00	-1.48637253e+08	9.69334745e-01	7.89787931e-02
4.03007337e-01	5.77415004e+00	2.91052203e+00	1.13282595e-01	2.14702628e+03	2.69298151e+03	8.87200943e-01	1.11280228e+00	-5.26766719e+07	3.15023827e-01	7.79169205e-02
4.80396016e-01	6.88294834e+00	1.01154187e+00	3.93709743e-02	2.32477190e+03	2.51522905e+03	9.60649543e-01	1.03935085e+00	-1.83763219e+07	1.03943470e-01	7.68657919e-02
5.56738920e-01	7.97676312e+00	3.56123210e-01	1.38609366e-02	2.38645874e+03	2.45354138e+03	9.86139975e-01	1.01386007e+00	-6.47249067e+06	3.48144352e-02	7.58253344e-02
6.32046685e-01	9.05574678e+00	1.27014825e-01	4.94363858e-03	2.40803650e+03	2.43196352e+03	9.95056405e-01	1.00494360e+00	-2.30860608e+06	1.18348481e-02	7.47954756e-02
7.06329872e-01	1.01200506e+01	4.58896713e-02	1.78610606e-03	2.41567763e+03	2.42432237e+03	9.98213896e-01	1.00178610e+00	-8.34091010e+05	4.08264287e-03	7.37761432e-02
7.79598971e-01	1.11698250e+01	1.67935464e-02	6.53634120e-04	2.41841821e+03	2.42158179e+03	9.99346366e-01	1.00065363e+00	-3.05239906e+05	1.42899324e-03	7.27672654e-02
8.51864402e-01	1.22052192e+01	6.22438134e-03	2.42263780e-04	2.41941372e+03	2.42058628e+03	9.99757736e-01	1.00024226e+00	-1.13134520e+05	5.07416053e-04	7.17687704e-02
9.23136512e-01	1.32263814e+01	2.33633611e-03	9.09342769e-05	2.41977994e+03	2.42022006e+03	9.99909066e-01	1.00009093e+00	-4.24653076e+04	1.82759137e-04	7.07805867e-02
9.93425576e-01	1.42334588e+01	8.88011636e-04	3.45629620e-05	2.41991636e+03	2.42008364e+03	9.99965437e-01	1.00003456e+00	-1.61405233e+04	6.67591686e-05	6.98026430e-02
1.06274180e+00	1.52265977e+01	3.41747135e-04	1.33013947e-05	2.41996781e+03	2.42003219e+03	9.99986699e-01	1.00001330e+00	-6.21160509e+03	2.47284087e-05	6.88348684e-02
1.13109531e+00	1.62059433e+01	1.33153479e-04	5.18256568e-06	2.41998746e+03	2.42001254e+03	9.99994817e-01	1.00000518e+00	-2.42020120e+03	9.28692192e-06	6.78771921e-02
1.19849618e+00	1.71716397e+01	5.25194213e-05	2.04414750e-06	2.41999505e+03	2.42000495e+03	9.99997956e-01	1.00000204e+00	-9.54594410e+02	3.53569810e-06	6.69295437e-02
1.26495440e+00	1.81238301e+01	2.09684030e-05	8.16126824e-07	2.41999802e+03	2.42000198e+03	9.99999184e-01	1.00000082e+00	-3.81122256e+02	1.36440762e-06	6.59918529e-02
1.33047989e+00	1.90626567e+01	8.47318880e-06	3.29791289e-07	2.41999920e+03	2.42000080e+03	9.99999670e-01	1.00000033e+00	-1.54008907e+02	5.33601365e-07	6.50640496e-02
1.39508250e+00	1.99882606e+01	3.46515361e-06	1.34869824e-07	2.41999967e+03	2.42000033e+03	9.99999865e-01	1.00000013e+00	-6.29827250e+01	2.11461962e-07	6.41460642e-02
1.45877202e+00	2.09007820e+01	1.43400294e-06	5.58138962e-08	2.41999986e+03	2.42000014e+03	9.99999944e-01	1.00000006e+00	-2.60644760e+01	8.49042125e-08	6.32378272e-02
1.52155815e+00	2.18003601e+01	6.00464443e-07	2.33711236e-08	2.41999994e+03	2.42000006e+03	9.99999977e-01	1.00000002e+00	-1.09140578e+01	3.45340435e-08	6.23392692e-02
1.58345055e+00	2.26871331e+01	2.54385244e-07	9.90111746e-09	2.41999998e+03	2.42000002e+03	9.99999990e-01	1.00000001e+00	-4.62371298e+00	1.42274420e-08	6.14503212e-02
1.64445880e+00	2.35612381e+01	1.09023842e-07	4.24339813e-09	2.41999999e+03	2.42000001e+03	9.99999996e-01	1.00000000e+00	-1.98162024e+00	5.93619058e-09	6.05709146e-02
1.70459238e+00	2.44228114e+01	4.72643300e-08	1.83961018e-09	2.42000000e+03	2.42000000e+03	9.99999998e-01	1.00000000e+00	-8.59077752e-01	2.50802180e-09	5.97009807e-02
1.76386076e+00	2.52719882e+01	2.07245650e-08	8.06636224e-10	2.42000000e+03	2.42000000e+03	9.99999999e-01	1.00000000e+00	-3.76690241e-01	1.07284877e-09	5.88404514e-02
1.82227329e+00	2.61089028e+01	9.19040437e-09	3.57706571e-10	2.42000000e+03	2.42000000e+03	1.00000000e+00	1.00000000e+00	-1.67045013e-01	4.64591362e-10	5.79892585e-02
1.87983927e+00	2.69336884e+01	4.12133988e-09	1.60409738e-10	2.42000000e+03	2.42000000e+03	1.00000000e+00	1.00000000e+00	-7.49095597e-02	2.03643847e-10	5.71473344e-02
1.93656796e+00	2.77464774e+01	1.86876269e-09	7.27355041e-11	2.42000000e+03	2.42000000e+03	1.00000000e+00	1.00000000e+00	-3.39666899e-02	9.03403006e-11	5.63146114e-02
1.99246850e+00	2.85474010e+01	8.56720307e-10	3.33450489e-11	2.42000000e+03	2.42000000e+03	1.00000000e+00	1.00000000e+00	-1.55717957e-02	4.05550369e-11	5.54910223e-02
2.04755000e+00	2.93365898e+01	3.97054748e-10	1.54540635e-11	2.42000000e+03	2.42000000e+03	1.00000000e+00	1.00000000e+00	-7.21688611e-03	1.84206298e-11	5.46765000e-02
2.10182150e+00	3.01141731e+01	1.86013897e-10	7.23998536e-12	2.42000000e+03	2.42000000e+03	1.00000000e+00	1.00000000e+00	-3.38103142e-03	8.46455919e-12	5.38709778e-02
2.15529196e+00	3.08802794e+01	8.80808063e-11	3.42825864e-12	2.42000000e+03	2.42000000e+03	1.00000000e+00	1.00000000e+00	-1.60100775e-03	3.93449156e-12	5.30743891e-02
2.20797028e+00	3.16350362e+01	4.21517203e-11	1.64061849e-12	2.42000000e+03	2.42000000e+03	1.00000000e+00	1.00000000e+00	-7.66170556e-04	1.84970261e-12	5.22866677e-02
2.25986529e+00	3.23785700e+01	2.03847180e-11	7.93408785e-13	2.42000000e+03	2.42000000e+03	1.00000000e+00	1.00000000e+00	-3.70492737e-04	8.79405650e-13	5.15077474e-02
2.31098577e+00	3.31110066e+01	9.96108768e-12	3.87702910e-13	2.42000000e+03	2.42000000e+03	1.00000000e+00	1.00000000e+00	-1.81034229e-04	4.22762136e-13	5.07375625e-02
2.36134042e+00	3.38324706e+01	4.91788956e-12	1.91412841e-13	2.42000000e+03	2.42000000e+03	1.00000000e+00	1.00000000e+00	-8.94202034e-05	2.05479384e-13	4.99760474e-02
2.41093787e+00	3.45430857e+01	2.45289000e-12	9.54707578e-14	2.42000000e+03	2.42000000e+03	1.00000000e+00	1.00000000e+00	-4.45784724e-05	1.00960623e-13	4.92231368e-02
2.45978669e+00	3.52429748e+01	1.23583943e-12	4.81010266e-14	2.42000000e+03	2.42000000e+03	1.00000000e+00	1.00000000e+00	-2.24647420e-05	5.01411222e-14	4.84787657e-02
2.50789540e+00	3.59322598e+01	6.28909475e-13	2.44782539e-14	2.42000000e+03	2.42000000e+03	1.00000000e+00	1.00000000e+00	-1.14078768e-05	2.51675766e-14	4.77428692e-02
2.55527243e+00	3.66110615e+01	3.23231620e-13	1.25807385e-14	2.42000000e+03	2.42000000e+03	1.00000000e+00	1.00000000e+00	-5.87944419e-06	1.27656091e-14	4.70153827e-02
2.60192616e+00	3.72795001e+01	1.67763206e-13	6.52963664e-15	2.42000000e+03	2.42000000e+03	1.00000000e+00	1.00000000e+00	-3.02747499e-06	6.54247913e-15	4.62962420e-02
2.64786491e+00	3.79376947e+01	8.79213636e-14	3.42205285e-15	2.42000000e+03	2.42000000e+03	1.00000000e+00	1.00000000e+00	-1.57955217e-06	3.38759967e-15	4.55853830e-02
2.69309693e+00	3.85857634e+01	4.65226728e-14	1.81074358e-15	2.42000000e+03	2.42000000e+03	1.00000000e+00	1.00000000e+00	-7.89776085e-07	1.77190084e-15	4.48827418e-02
2.73763040e+00	3.92238236e+01	2.48522240e-14	9.67291913e-16	2.42000000e+03	2.42000000e+03	1.00000000e+00	1.00000000e+00	-4.38764492e-07	9.36124066e-16	4.41882548e-02
2.78147344e+00	3.98519915e+01	1.34015222e-14	5.21610625e-16	2.42000000e+03	2.42000000e+03	1.00000000e+00	1.00000000e+00	-2.19382246e-07	4.99486235e-16	4.35018588e-02
2.82463411e+00	4.04703828e+01	7.29439520e-15	2.83910586e-16	2.42000000e+03	2.42000000e+03	1.00000000e+00	1.00000000e+00	-1.31629348e-07	2.69128450e-16	4.28234906e-02
2.86712042e+00	4.10791119e+01	4.00708779e-15	1.55962847e-16	2.42000000e+03	2.42000000e+03	1.00000000e+00	1.00000000e+00	-8.77528984e-08	1.46417137e-16	4.21530874e-02
2.90894029e+00	4.16782926e+01	2.22142204e-15	8.64616209e-17	2.42000000e+03	2.42000000e+03	1.00000000e+00	1.00000000e+00	-4.38764492e-08	8.04212942e-17	4.14905867e-02
2.95010159e+00	4.22680376e+01	1.24266570e-15	4.83667167e-17	2.42000000e+03	2.42000000e+03	1.00000000e+00	1.00000000e+00	0.00000000e+00	4.45910887e-17	4.08359260e-02
2.99061214e+00	4.28484587e+01	7.01385935e-16	2.72991641e-17	2.42000000e+03	2.42000000e+03	1.00000000e+00	1.00000000e+00	0.00000000e+00	2.49559653e-17	4.01890432e-02
3.03047968e+00	4.34196670e+01	3.99390685e-16	1.55449822e-17	2.42000000e+03	2.42000000e+03	1.00000000e+00	1.00000000e+00	0.00000000e+00	1.40961900e-17	3.95498766e-02
3.06971189e+00	4.39817727e+01	2.29422345e-16	8.92951789e-18	2.42000000e+03	2.42000000e+03	1.00000000e+00	1.00000000e+00	0.00000000e+00	8.03493507e-18	3.89183644e-02
3.10831641e+00	4.45348848e+01	1.32931932e-16	5.17394270e-18	2.42000000e+03	2.42000000e+03	1.00000000e+00	1.00000000e+00	0.00000000e+00	4.62134949e-18	3.82944455e-02
3.14630078e+00	4.50791119e+01	7.76851138e-17	3.02364015e-18	2.42000000e+03	2.42000000e+03	1.00000000e+00	1.00000000e+00	0.00000000e+00	2.68172359e-18	3.76780585e-02
3.18367252e+00	4.56145613e+01	4.57847035e-17	1.78202053e-18	2.42000000e+03	2.42000000e+03	1.00000000e+00	1.00000000e+00	0.00000000e+00	1.56989748e-18	3.70691427e-02
3.22043907e+00	4.61413396e+01	2.72104988e-17	1.05908008e-18	2.42000000e+03	2.42000000e+03	1.00000000e+00	1.00000000e+00	0.00000000e+00	9.27031206e-19	3.64676375e-02
3.25660780e+00	4.66595527e+01	1.63059330e-17	6.34655357e-19	2.42000000e+03	2.42000000e+03	1.00000000e+00	1.00000000e+00	0.00000000e+00	5.52124822e-19	3.58734825e-02
3.29218603e+00	4.71693054e+01	9.85161840e-18	3.83442174e-19	2.42000000e+03	2.42000000e+03	1.00000000e+00	1.00000000e+00	0.00000000e+00	3.31630525e-19	3.52866175e-02
3.32718103e+00	4.76707017e+01	6.00042751e-18	2.33547106e-19	2.42000000e+03	2.42000000e+03	1.00000000e+00	1.00000000e+00	0.00000000e+00	2.00863423e-19	3.47069827e-02
3.36160000e+00	4.81638447e+01	3.68408444e-18	1.43390993e-19	2.42000000e+03	2.42000000e+03	1.00000000e+00	1.00000000e+00	0.00000000e+00	1.22668075e-19	3.41345185e-02
3.39545007e+00	4.86488369e+01	2.27986957e-18	8.87365008e-20	2.42000000e+03	2.42000000e+03	1.00000000e+00	1.00000000e+00	0.00000000e+00	7.55269832e-20	3.35691655e-02
3.42873833e+00	4.91257796e+01	1.42194872e-18	5.53447248e-20	2.42000000e+03	2.42000000e+03	1.00000000e+00	1.00000000e+00	0.00000000e+00	4.68779443e-20	3.30108644e-02
3.46147180e+00	4.95947734e+01	8.93741726e-19	3.47859871e-20	2.42000000e+03	2.42000000e+03	1.00000000e+00	1.00000000e+00	0.00000000e+00	2.93283152e-20	3.24595566e-02
3.49365744e+00	5.00559182e+01	5.66050474e-19	2.20316719e-20	2.42000000e+03	2.42000000e+03	1.00000000e+00	1.00000000e+00	0.00000000e+00	1.84933026e-20	3.19151832e-02
3.52530217e+00	5.05093129e+01	3.61222147e-19	1.40593961e-20	2.42000000e+03	2.42000000e+03	1.00000000e+00	1.00000000e+00	0.00000000e+00	1.17518888e-20	3.13776860e-02
3.55641282e+00	5.09550555e+01	2.32236744e-19	9.03905922e-21	2.42000000e+03	2.42000000e+03	1.00000000e+00	1.00000000e+00	0.00000000e+00	7.52530492e-21	3.08470067e-02
3.58699618e+00	5.13932434e+01	1.50413332e-19	5.85434929e-21	2.42000000e+03	2.42000000e+03	1.00000000e+00	1.00000000e+00	0.00000000e+00	4.85536094e-21	3.03230874e-02
3.61705899e+00	5.18239730e+01	9.81301038e-20	3.81939483e-21	2.42000000e+03	2.42000000e+03	1.00000000e+00	1.00000000e+00	0.00000000e+00	3.15615295e-21	2.98058706e-02
3.64660792e+00	5.22473399e+01	6.44823149e-20	2.50976418e-21	2.42000000e+03	2.42000000e+03	1.00000000e+00	1.00000000e+00	0.00000000e+00	2.06676997e-21	2.92952988e-02
3.67564959e+00	5.26634389e+01	4.26740193e-20	1.66094728e-21	2.42000000e+03	2.42000000e+03	1.00000000e+00	1.00000000e+00	0.00000000e+00	1.36327242e-21	2.87913148e-02
3.70419055e+00	5.30723639e+01	2.84402495e-20	1.10694412e-21	2.42000000e+03	2.42000000e+03	1.00000000e+00	1.00000000e+00	0.00000000e+00	9.05709141e-22	2.82938618e-02
3.73223731e+00	5.34742082e+01	1.90859051e-20	7.42856721e-22	2.42000000e+03	2.42000000e+03	1.00000000e+00	1.00000000e+00	0.00000000e+00	6.05996316e-22	2.78028830e-02
3.75979632e+00	5.38690642e+01	1.28962794e-20	5.01945691e-22	2.42000000e+03	2.42000000e+03	1.00000000e+00	1.00000000e+00	0.00000000e+00	4.08306449e-22	2.73183220e-02
3.78687396e+00	5.42570232e+01	8.77306741e-21	3.41463088e-22	2.42000000e+03	2.42000000e+03	1.00000000e+00	1.00000000e+00	0.00000000e+00	2.77011474e-22	2.68401227e-02
3.81347656e+00	5.46381762e+01	6.00809981e-21	2.33845726e-22	2.42000000e+03	2.42000000e+03	1.00000000e+00	1.00000000e+00	0.00000000e+00	1.89219168e-22	2.63682292e-02
3.83961041e+00	5.50126130e+01	4.14176036e-21	1.61204539e-22	2.42000000e+03	2.42000000e+03	1.00000000e+00	1.00000000e+00	0.00000000e+00	1.30121568e-22	2.59025857e-02
3.86528173e+00	5.53804228e+01	2.87381434e-21	1.11853868e-22	2.42000000e+03	2.42000000e+03	1.00000000e+00	1.00000000e+00	0.00000000e+00	9.00765031e-23	2.54431368e-02
3.89049669e+00	5.57416940e+01	2.00688441e-21	7.81114424e-23	2.42000000e+03	2.42000000e+03	1.00000000e+00	1.00000000e+00	0.00000000e+00	6.27644093e-23	2.49898274e-02
3.91526139e+00	5.60965140e+01	1.41039307e-21	5.48949588e-23	2.42000000e+03	2.42000000e+03	1.00000000e+00	1.00000000e+00	0.00000000e+00	4.40166555e-23	2.45426025e-02
3.93958189e+00	5.64449698e+01	9.97416656e-22	3.88211962e-23	2.42000000e+03	2.42000000e+03	1.00000000e+00	1.00000000e+00	0.00000000e+00	3.10659481e-23	2.41014074e-02
3.96346420e+00	5.67871473e+01	7.09735369e-22	2.76241387e-23	2.42000000e+03	2.42000000e+03	1.00000000e+00	1.00000000e+00	0.00000000e+00	2.20637238e-23	2.36661877e-02
3.98691427e+00	5.71231318e+01	5.08118083e-22	1.97768422e-23	2.42000000e+03	2.42000000e+03	1.00000000e+00	1.00000000e+00	0.00000000e+00	1.57674922e-23	2.32368891e-02
4.00993798e+00	5.74530076e+01	3.65970824e-22	1.42442229e-23	2.42000000e+03	2.42000000e+03	1.00000000e+00	1.00000000e+00	0.00000000e+00	1.13370321e-23	2.28134578e-02
4.03254118e+00	5.77768585e+01	2.65159616e-22	1.03204748e-23	2.42000000e+03	2.42000000e+03	1.00000000e+00	1.00000000e+00	0.00000000e+00	8.20073400e-24	2.23958400e-02
4.05472966e+00	5.80947673e+01	1.93247174e-22	7.52151714e-24	2.42000000e+03	2.42000000e+03	1.00000000e+00	1.00000000e+00	0.00000000e+00	5.96742081e-24	2.19839823e-02
4.07650915e+00	5.84068163e+01	1.41654306e-22	5.51343272e-24	2.42000000e+03	2.42000000e+03	1.00000000e+00	1.00000000e+00	0.00000000e+00	4.36782791e-24	2.15778314e-02
4.09788532e+00	5.87130868e+01	1.04429580e-22	4.06458145e-24	2.42000000e+03	2.42000000e+03	1.00000000e+00	1.00000000e+00	0.00000000e+00	3.21554020e-24	2.11773344e-02
4.11886382e+00	5.90136594e+01	7.74213839e-23	3.01337532e-24	2.42000000e+03	2.42000000e+03	1.00000000e+00	1.00000000e+00	0.00000000e+00	2.38076714e-24	2.07824385e-02
4.13945020e+00	5.93086140e+01	5.77176651e-23	2.24647221e-24	2.42000000e+03	2.42000000e+03	1.00000000e+00	1.00000000e+00	0.00000000e+00	1.77263679e-24	2.03930914e-02
4.15965000e+00	5.95980297e+01	4.32647352e-23	1.68393897e-24	2.42000000e+03	2.42000000e+03	1.00000000e+00	1.00000000e+00	0.00000000e+00	1.32717472e-24	2.00092407e-02
4.17946868e+00	5.98819850e+01	3.26064955e-23	1.26910169e-24	2.42000000e+03	2.42000000e+03	1.00000000e+00	1.00000000e+00	0.00000000e+00	9.99097567e-25	1.96308346e-02
4.19891167e+00	6.01605574e+01	2.47050960e-23	9.61565435e-25	2.42000000e+03	2.42000000e+03	1.00000000e+00	1.00000000e+00	0.00000000e+00	7.56180453e-25	1.92578212e-02
4.21798433e+00	6.04338238e+01	1.88169465e-23	7.32388384e-25	2.42000000e+03	2.42000000e+03	1.00000000e+00	1.00000000e+00	0.00000000e+00	5.75370169e-25	1.88901492e-02
4.23669197e+00	6.07018605e+01	1.44065514e-23	5.60728115e-25	2.42000000e+03	2.42000000e+03	1.00000000e+00	1.00000000e+00	0.00000000e+00	4.40088994e-25	1.85277672e-02
4.25503986e+00	6.09647427e+01	1.10863239e-23	4.31499067e-25	2.42000000e+03	2.42000000e+03	1.00000000e+00	1.00000000e+00	0.00000000e+00	3.38354681e-25	1.81706242e-02
4.27303322e+00	6.12225453e+01	8.57433340e-24	3.33728014e-25	2.42000000e+03	2.42000000e+03	1.00000000e+00	1.00000000e+00	0.00000000e+00	2.61462821e-25	1.78186696e-02
4.29067720e+00	6.14753422e+01	6.66449644e-24	2.59393828e-25	2.42000000e+03	2.42000000e+03	1.00000000e+00	1.00000000e+00	0.00000000e+00	2.03058720e-25	1.74718529e-02
4.30797692e+00	6.17232067e+01	5.20544244e-24	2.02604901e-25	2.42000000e+03	2.42000000e+03	1.00000000e+00	1.00000000e+00	0.00000000e+00	1.58480371e-25	1.71301237e-02
4.32493745e+00	6.19662112e+01	4.08545774e-24	1.59013142e-25	2.42000000e+03	2.42000000e+03	1.00000000e+00	1.00000000e+00	0.00000000e+00	1.24291075e-25	1.67934321e-02
4.34156379e+00	6.22044277e+01	3.22170862e-24	1.25394520e-25	2.42000000e+03	2.42000000e+03	1.00000000e+00	1.00000000e+00	0.00000000e+00	9.79453570e-26	1.64617284e-02
4.35786090e+00	6.24379272e+01	2.55249104e-24	9.93474042e-26	2.42000000e+03	2.42000000e+03	1.00000000e+00	1.00000000e+00	0.00000000e+00	7.75490213e-26	1.61349630e-02
4.37383371e+00	6.26667800e+01	2.03163112e-24	7.90746275e-26	2.42000000e+03	2.42000000e+03	1.00000000e+00	1.00000000e+00	0.00000000e+00	6.16860233e-26	1.58130867e-02
4.38948708e+00	6.28910561e+01	1.62442122e-24	6.32253076e-26	2.42000000e+03	2.42000000e+03	1.00000000e+00	1.00000000e+00	0.00000000e+00	4.92929649e-26	1.54960504e-02
4.40482581e+00	6.31108242e+01	1.30465711e-24	5.07795308e-26	2.42000000e+03	2.42000000e+03	1.00000000e+00	1.00000000e+00	0.00000000e+00	3.95677049e-26	1.51838054e-02
4.41985469e+00	6.33261527e+01	1.05246846e-24	4.09639087e-26	2.42000000e+03	2.42000000e+03	1.00000000e+00	1.00000000e+00	0.00000000e+00	3.19025110e-26	1.48763032e-02
4.43457842e+00	6.35371092e+01	8.52723196e-25	3.31894744e-26	2.42000000e+03	2.42000000e+03	1.00000000e+00	1.00000000e+00	0.00000000e+00	2.58349487e-26	1.45734956e-02
4.44900168e+00	6.37437607e+01	6.93848916e-25	2.70058102e-26	2.42000000e+03	2.42000000e+03	1.00000000e+00	1.00000000e+00	0.00000000e+00	2.10116426e-26	1.42753344e-02
4.46312909e+00	6.39461734e+01	5.66958726e-25	2.20670227e-26	2.42000000e+03	2.42000000e+03	1.00000000e+00	1.00000000e+00	0.00000000e+00	1.71614235e-26	1.39817719e-02
4.47696522e+00	6.41444127e+01	4.65200069e-25	1.81063982e-26	2.42000000e+03	2.42000000e+03	1.00000000e+00	1.00000000e+00	0.00000000e+00	1.40753450e-26	1.36927605e-02
4.49051461e+00	6.43385437e+01	3.83267742e-25	1.49174491e-26	2.42000000e+03	2.42000000e+03	1.00000000e+00	1.00000000e+00	0.00000000e+00	1.15917513e-26	1.34082531e-02
4.50378173e+00	6.45286304e+01	3.17038184e-25	1.23396792e-26	2.42000000e+03	2.42000000e+03	1.00000000e+00	1.00000000e+00	0.00000000e+00	9.58507347e-27	1.31282025e-02
4.51677101e+00	6.47147364e+01	2.63293769e-25	1.02478528e-26	2.42000000e+03	2.42000000e+03	1.00000000e+00	1.00000000e+00	0.00000000e+00	7.95738987e-27	1.28525620e-02
4.52948685e+00	6.48969245e+01	2.19514119e-25	8.54387246e-27	2.42000000e+03	2.42000000e+03	1.00000000e+00	1.00000000e+00	0.00000000e+00	6.63204296e-27	1.25812850e-02
4.54193358e+00	6.50752570e+01	1.83717543e-25	7.15060728e-27	2.42000000e+03	2.42000000e+03	1.00000000e+00	1.00000000e+00	0.00000000e+00	5.54879297e-27	1.23143252e-02
4.55411550e+00	6.52497953e+01	1.54340098e-25	6.00718586e-27	2.42000000e+03	2.42000000e+03	1.00000000e+00	1.00000000e+00	0.00000000e+00	4.66012417e-27	1.20516366e-02
